pT(GeV)  R_AA of B-meson(=B0 + B+) in mini.bias Pb+Pb 5.02 TeV.

0.1 1.03279
0.3 1.03582
0.5 1.0358
0.7 1.04625
0.9 1.05142
1.1 1.06253
1.3 1.07147
1.5 1.0826
1.7 1.09291
1.9 1.10176
2.1 1.10301
2.3 1.11468
2.5 1.11177
2.7 1.11635
2.9 1.11548
3.1 1.10797
3.3 1.10006
3.5 1.09255
3.7 1.07918
3.9 1.05477
4.1 1.04286
4.3 1.01356
4.5 0.99646
4.7 0.97526
4.9 0.95152
5.1 0.92712
5.3 0.89618
5.5 0.87307
5.7 0.85345
5.9 0.82401
6.1 0.80597
6.3 0.78298
6.5 0.76126
6.7 0.74049
6.9 0.72271
7.1 0.70775
7.3 0.68512
7.5 0.66479
7.7 0.66453
7.9 0.65115
8.1 0.63062
8.3 0.61612
8.5 0.61369
8.7 0.59921
8.9 0.58913
9.1 0.57919
9.3 0.56829
9.5 0.56132
9.7 0.55855
9.9 0.54612
10.1 0.54473
10.3 0.54174
10.5 0.52647
10.7 0.53108
10.9 0.52389
11.1 0.52707
11.3 0.52233
11.5 0.5184
11.7 0.50895
11.9 0.50891
12.1 0.50707
12.3 0.51461
12.5 0.4985
12.7 0.50308
12.9 0.49924
13.1 0.49849
13.3 0.49906
13.5 0.4966
13.7 0.48724
13.9 0.50105
14.1 0.48771
14.3 0.48967
14.5 0.48336
14.7 0.4937
14.9 0.49182
15.1 0.49329
15.3 0.48335
15.5 0.48738
15.7 0.4969
15.9 0.49273
16.1 0.49142
16.3 0.48733
16.5 0.49034
16.7 0.48587
16.9 0.4929
17.1 0.49093
17.3 0.49061
17.5 0.49929
17.7 0.49749
17.9 0.4899
18.1 0.49852
18.3 0.5124
18.5 0.49536
18.7 0.49819
18.9 0.50024
19.1 0.49478
19.3 0.50842
19.5 0.51296
19.7 0.4994
19.9 0.49473
20.1 0.51147
20.3 0.51449
20.5 0.51272
20.7 0.5098
20.9 0.51251
21.1 0.515
21.3 0.52649
21.5 0.51764
21.7 0.5174
21.9 0.50541
22.1 0.51442
22.3 0.50835
22.5 0.52557
22.7 0.50851
22.9 0.506
23.1 0.52818
23.3 0.50383
23.5 0.50643
23.7 0.50217
23.9 0.52629
24.1 0.51464
24.3 0.51496
24.5 0.51013
24.7 0.5007
24.9 0.51801
25.1 0.5122
25.3 0.52186
25.5 0.51978
25.7 0.50646
25.9 0.51197
26.1 0.4974
26.3 0.50383
26.5 0.50967
26.7 0.50134
26.9 0.49796
27.1 0.49472
27.3 0.50241
27.5 0.51241
27.7 0.49231
27.9 0.48509
28.1 0.52142
28.3 0.52209
28.5 0.4933
28.7 0.48565
28.9 0.48517
29.1 0.50998
29.3 0.50482
29.5 0.51007
29.7 0.50561
29.9 0.49214

Thanks!Thank you for the clarification.Awesome, thanks!

Pb+Pb 5.02 TeV, mini.bias, TAMU non-perturbative transport model

-------------------------------------------------

(1). Bs meson R_AA

pT(GeV)  R_AA

0.1	2.05647
0.3	2.06577
0.5	2.05687
0.7	2.07928
0.9	2.08938
1.1	2.10724
1.3	2.1225
1.5	2.14658
1.7	2.17848
1.9	2.19108
2.1	2.20106
2.3	2.21696
2.5	2.20356
2.7	2.22538
2.9	2.21496
3.1	2.19825
3.3	2.19254
3.5	2.15432
3.7	2.14004
3.9	2.1009
4.1	2.07706
4.3	1.9686
4.5	1.98017
4.7	1.94152
4.9	1.88236
5.1	1.86116
5.3	1.77978
5.5	1.73841
5.7	1.66025
5.9	1.64539
6.1	1.60214
6.3	1.53851
6.5	1.5039
6.7	1.43228
6.9	1.39889
7.1	1.34701
7.3	1.29543
7.5	1.258
7.7	1.22318
7.9	1.18565
8.1	1.13231
8.3	1.10913
8.5	1.10122
8.7	1.05845
8.9	1.03812
9.1	1.0056
9.3	0.97328
9.5	0.94813
9.7	0.92509
9.9	0.91827
10.1	0.86314
10.3	0.87318
10.5	0.83002
10.7	0.817
10.9	0.81321
11.1	0.77996
11.3	0.76791
11.5	0.75576
11.7	0.73713
11.9	0.73195
12.1	0.70679
12.3	0.71669
12.5	0.69558
12.7	0.67384
12.9	0.66867
13.1	0.63893
13.3	0.63401
13.5	0.64073
13.7	0.61988
13.9	0.62995
14.1	0.63452
14.3	0.59413
14.5	0.59755
14.7	0.61014
14.9	0.60882
15.1	0.58839
15.3	0.594
15.5	0.57792
15.7	0.57025
15.9	0.58637
16.1	0.5814
16.3	0.56605
16.5	0.56608
16.7	0.5502
16.9	0.55333
17.1	0.56654
17.3	0.58307
17.5	0.56394
17.7	0.56162
17.9	0.53992
18.1	0.55264
18.3	0.55816
18.5	0.54516
18.7	0.55217
18.9	0.54253
19.1	0.54252
19.3	0.55061
19.5	0.55565
19.7	0.53417
19.9	0.55957
20.1	0.55249
20.3	0.55866
20.5	0.5438
20.7	0.54383
20.9	0.54818
21.1	0.55159
21.3	0.55456
21.5	0.55155
21.7	0.54409
21.9	0.55136
22.1	0.55618
22.3	0.54701
22.5	0.55032
22.7	0.54478
22.9	0.54403
23.1	0.55263
23.3	0.5372
23.5	0.53824
23.7	0.54159
23.9	0.55064
24.1	0.54298
24.3	0.53892
24.5	0.54288
24.7	0.54492
24.9	0.53521
25.1	0.55199
25.3	0.53913
25.5	0.53259
25.7	0.53554
25.9	0.53
26.1	0.52598
26.3	0.53263
26.5	0.53114
26.7	0.54015
26.9	0.52005
27.1	0.53636
27.3	0.53064
27.5	0.53054
27.7	0.54714
27.9	0.52528
28.1	0.52874
28.3	0.55313
28.5	0.51982
28.7	0.52035
28.9	0.51875
29.1	0.53075
29.3	0.50985
29.5	0.53277
29.7	0.51655
29.9	0.52598

------------------------------

(2). Bs over B+

pT(GeV)  Bs/B+

0.1	0.64282
0.3	0.64397
0.5	0.64119
0.7	0.64164
0.9	0.64155
1.1	0.64028
1.3	0.63949
1.5	0.64005
1.7	0.64341
1.9	0.64187
2.1	0.64404
2.3	0.64187
2.5	0.63963
2.7	0.64324
2.9	0.64071
3.1	0.64019
3.3	0.64305
3.5	0.63612
3.7	0.63984
3.9	0.64258
4.1	0.64234
4.3	0.62636
4.5	0.64101
4.7	0.64216
4.9	0.63803
5.1	0.64741
5.3	0.64059
5.5	0.64231
5.7	0.62756
5.9	0.64445
6.1	0.64149
6.3	0.63424
6.5	0.63782
6.7	0.62455
6.9	0.62506
7.1	0.61485
7.3	0.61101
7.5	0.61166
7.7	0.59504
7.9	0.58889
8.1	0.581
8.3	0.58237
8.5	0.58159
8.7	0.57271
8.9	0.57099
9.1	0.5626
9.3	0.55504
9.5	0.54711
9.7	0.53741
9.9	0.54494
10.1	0.51421
10.3	0.5228
10.5	0.51176
10.7	0.49875
10.9	0.505
11.1	0.4804
11.3	0.47737
11.5	0.47343
11.7	0.47085
11.9	0.46729
12.1	0.45245
12.3	0.4537
12.5	0.45324
12.7	0.43468
12.9	0.43554
13.1	0.41705
13.3	0.41168
13.5	0.42006
13.7	0.41392
13.9	0.40895
14.1	0.42359
14.3	0.39515
14.5	0.40207
14.7	0.40208
14.9	0.40363
15.1	0.38788
15.3	0.40001
15.5	0.38519
15.7	0.37432
15.9	0.3882
16.1	0.38494
16.3	0.37807
16.5	0.37521
16.7	0.36776
16.9	0.36583
17.1	0.37553
17.3	0.387
17.5	0.36706
17.7	0.36744
17.9	0.3581
18.1	0.36024
18.3	0.35425
18.5	0.35796
18.7	0.36077
18.9	0.35325
19.1	0.35653
19.3	0.35204
19.5	0.35259
19.7	0.34857
19.9	0.36929
20.1	0.35254
20.3	0.35343
20.5	0.34432
20.7	0.34729
20.9	0.34789
21.1	0.34868
21.3	0.34293
21.5	0.34655
21.7	0.34237
21.9	0.35514
22.1	0.35199
22.3	0.35009
22.5	0.34068
22.7	0.34847
22.9	0.3497
23.1	0.3399
23.3	0.34612
23.5	0.34521
23.7	0.35032
23.9	0.33999
24.1	0.34432
24.3	0.34131
24.5	0.34582
24.7	0.35481
24.9	0.33619
25.1	0.35133
25.3	0.33555
25.5	0.33214
25.7	0.34284
25.9	0.33679
26.1	0.34393
26.3	0.34367
26.5	0.33863
26.7	0.35091
26.9	0.34012
27.1	0.35317
27.3	0.34433
27.5	0.33712
27.7	0.36209
27.9	0.35177
28.1	0.33017
28.3	0.34444
28.5	0.34194
28.7	0.34974
28.9	0.34718
29.1	0.33867
29.3	0.32795
29.5	0.34058
29.7	0.33228
29.9	0.34781
